"Time (MJD)" GAIA/GAIA0.G GAIA/GAIA0.G_err Misc/Atlas.orange Misc/Atlas.orange_err PAN-STARRS/PS1.g PAN-STARRS/PS1.g_err PAN-STARRS/PS1.i PAN-STARRS/PS1.i_err PAN-STARRS/PS1.r PAN-STARRS/PS1.r_err PAN-STARRS/PS1.w PAN-STARRS/PS1.w_err PAN-STARRS/PS1.z PAN-STARRS/PS1.z_err "Temp./1e3 (K)" "Temp. Err." "Radius/1e15 (cm)" "Radius Err." "Log10(Bol. Lum)" "Log10(Bol. Err)"
-50.000 -15.607 -0.102 -16.252 -0.062 -16.307 -0.060 -16.372 -0.058 -16.499 -0.054 -16.570 -0.055 -16.409 -0.115 5.261 0.297 1.358 0.169 42.003 41.529
-49.000 -15.673 -0.096 -16.300 -0.057 -16.352 -0.055 -16.414 -0.053 -16.535 -0.049 -16.597 -0.051 -16.433 -0.109 5.350 0.304 1.335 0.164 42.017 41.541
-48.000 -15.739 -0.090 -16.348 -0.053 -16.398 -0.051 -16.458 -0.049 -16.572 -0.045 -16.625 -0.047 -16.458 -0.103 5.441 0.310 1.313 0.159 42.032 41.554
-47.000 -15.806 -0.085 -16.397 -0.049 -16.446 -0.047 -16.502 -0.045 -16.611 -0.041 -16.655 -0.043 -16.484 -0.098 5.534 0.317 1.293 0.155 42.048 41.569
-46.000 -15.873 -0.080 -16.447 -0.045 -16.494 -0.043 -16.548 -0.041 -16.650 -0.038 -16.686 -0.040 -16.511 -0.093 5.590 0.320 1.293 0.153 42.066 41.584
-45.000 -15.941 -0.075 -16.498 -0.042 -16.542 -0.040 -16.594 -0.038 -16.690 -0.036 -16.719 -0.037 -16.540 -0.088 5.725 0.332 1.256 0.148 42.082 41.601
-44.000 -16.009 -0.071 -16.549 -0.039 -16.592 -0.037 -16.641 -0.036 -16.731 -0.033 -16.752 -0.035 -16.570 -0.084 5.824 0.340 1.240 0.145 42.100 41.619
-43.000 -16.077 -0.067 -16.601 -0.037 -16.642 -0.035 -16.689 -0.033 -16.773 -0.031 -16.786 -0.033 -16.601 -0.080 5.923 0.349 1.225 0.142 42.119 41.639
-42.000 -16.145 -0.064 -16.653 -0.034 -16.692 -0.033 -16.737 -0.031 -16.815 -0.029 -16.821 -0.031 -16.632 -0.076 6.024 0.358 1.211 0.140 42.139 41.659
-41.000 -16.213 -0.061 -16.706 -0.033 -16.743 -0.031 -16.785 -0.030 -16.858 -0.028 -16.857 -0.030 -16.665 -0.073 6.124 0.368 1.199 0.138 42.159 41.681
-40.000 -16.280 -0.058 -16.758 -0.031 -16.794 -0.030 -16.834 -0.028 -16.902 -0.026 -16.894 -0.028 -16.699 -0.070 6.226 0.379 1.188 0.136 42.179 41.703
-39.000 -16.348 -0.055 -16.812 -0.030 -16.845 -0.028 -16.884 -0.027 -16.946 -0.025 -16.931 -0.027 -16.733 -0.068 6.326 0.389 1.179 0.134 42.200 41.726
-38.000 -16.415 -0.053 -16.865 -0.028 -16.897 -0.027 -16.933 -0.026 -16.991 -0.024 -16.969 -0.026 -16.768 -0.065 6.427 0.400 1.171 0.133 42.222 41.750
-37.000 -16.482 -0.050 -16.918 -0.027 -16.949 -0.026 -16.983 -0.025 -17.035 -0.023 -17.007 -0.025 -16.804 -0.063 6.526 0.411 1.164 0.132 42.244 41.774
-36.000 -16.549 -0.048 -16.971 -0.026 -17.000 -0.025 -17.032 -0.024 -17.080 -0.023 -17.046 -0.025 -16.841 -0.061 6.624 0.422 1.159 0.132 42.266 41.799
-35.000 -16.615 -0.046 -17.024 -0.025 -17.052 -0.024 -17.082 -0.023 -17.125 -0.022 -17.085 -0.024 -16.877 -0.060 6.720 0.433 1.155 0.131 42.288 41.824
-34.000 -16.680 -0.044 -17.077 -0.025 -17.103 -0.023 -17.132 -0.022 -17.171 -0.021 -17.125 -0.023 -16.915 -0.058 6.814 0.443 1.153 0.131 42.310 41.848
-33.000 -16.744 -0.042 -17.129 -0.024 -17.154 -0.023 -17.181 -0.021 -17.216 -0.020 -17.165 -0.023 -16.952 -0.057 6.906 0.454 1.152 0.130 42.333 41.873
-32.000 -16.808 -0.040 -17.181 -0.023 -17.205 -0.022 -17.230 -0.021 -17.261 -0.020 -17.204 -0.022 -16.990 -0.055 6.994 0.464 1.153 0.130 42.355 41.897
-31.000 -16.871 -0.038 -17.233 -0.022 -17.255 -0.021 -17.279 -0.020 -17.305 -0.019 -17.244 -0.021 -17.028 -0.054 7.080 0.473 1.154 0.130 42.378 41.921
-30.000 -16.932 -0.037 -17.284 -0.021 -17.305 -0.020 -17.327 -0.019 -17.350 -0.018 -17.284 -0.021 -17.066 -0.053 7.162 0.481 1.157 0.130 42.400 41.944
-29.000 -16.993 -0.035 -17.334 -0.021 -17.354 -0.020 -17.375 -0.018 -17.394 -0.018 -17.324 -0.020 -17.104 -0.052 7.240 0.489 1.161 0.130 42.422 41.968
-28.000 -17.053 -0.033 -17.384 -0.020 -17.403 -0.019 -17.422 -0.018 -17.438 -0.017 -17.363 -0.020 -17.143 -0.051 7.314 0.497 1.167 0.130 42.444 41.990
-27.000 -17.111 -0.032 -17.433 -0.019 -17.451 -0.018 -17.468 -0.017 -17.481 -0.016 -17.403 -0.019 -17.181 -0.050 7.384 0.503 1.174 0.131 42.465 42.012
-26.000 -17.168 -0.030 -17.481 -0.018 -17.498 -0.017 -17.514 -0.016 -17.524 -0.016 -17.442 -0.019 -17.219 -0.050 7.449 0.509 1.182 0.131 42.486 42.033
-25.000 -17.224 -0.029 -17.528 -0.018 -17.544 -0.017 -17.559 -0.016 -17.566 -0.015 -17.480 -0.018 -17.256 -0.049 7.510 0.514 1.191 0.132 42.507 42.053
-24.000 -17.278 -0.027 -17.574 -0.017 -17.589 -0.016 -17.603 -0.015 -17.607 -0.015 -17.518 -0.018 -17.294 -0.048 7.565 0.518 1.201 0.132 42.527 42.073
-23.000 -17.331 -0.026 -17.619 -0.016 -17.634 -0.015 -17.646 -0.014 -17.648 -0.014 -17.556 -0.018 -17.330 -0.048 7.617 0.522 1.212 0.133 42.547 42.092
-22.000 -17.382 -0.025 -17.663 -0.016 -17.677 -0.015 -17.689 -0.014 -17.688 -0.014 -17.593 -0.018 -17.367 -0.047 7.665 0.525 1.223 0.134 42.566 42.110
-21.000 -17.432 -0.024 -17.706 -0.015 -17.719 -0.014 -17.730 -0.014 -17.726 -0.014 -17.629 -0.017 -17.403 -0.047 7.709 0.527 1.235 0.134 42.584 42.128
-20.000 -17.480 -0.023 -17.748 -0.015 -17.760 -0.014 -17.770 -0.013 -17.764 -0.013 -17.664 -0.017 -17.438 -0.046 7.752 0.530 1.247 0.135 42.602 42.145
-19.000 -17.526 -0.022 -17.788 -0.014 -17.799 -0.014 -17.808 -0.013 -17.801 -0.013 -17.699 -0.017 -17.473 -0.046 7.793 0.532 1.259 0.136 42.620 42.161
-18.000 -17.570 -0.021 -17.827 -0.014 -17.838 -0.013 -17.846 -0.013 -17.837 -0.013 -17.733 -0.017 -17.507 -0.046 7.833 0.534 1.271 0.137 42.637 42.177
-17.000 -17.613 -0.021 -17.864 -0.014 -17.875 -0.013 -17.882 -0.013 -17.872 -0.013 -17.766 -0.017 -17.540 -0.045 7.874 0.537 1.282 0.137 42.653 42.193
-16.000 -17.654 -0.021 -17.900 -0.014 -17.910 -0.013 -17.917 -0.012 -17.905 -0.013 -17.798 -0.017 -17.573 -0.045 7.916 0.540 1.292 0.138 42.669 42.209
-15.000 -17.693 -0.020 -17.935 -0.014 -17.944 -0.013 -17.951 -0.012 -17.937 -0.013 -17.829 -0.017 -17.605 -0.045 7.959 0.543 1.301 0.138 42.685 42.224
-14.000 -17.730 -0.020 -17.968 -0.014 -17.977 -0.013 -17.983 -0.013 -17.968 -0.013 -17.858 -0.017 -17.635 -0.045 8.002 0.546 1.310 0.139 42.700 42.239
-13.000 -17.766 -0.021 -18.000 -0.014 -18.008 -0.013 -18.014 -0.013 -17.998 -0.013 -17.887 -0.017 -17.665 -0.045 8.046 0.550 1.318 0.139 42.715 42.253
-12.000 -17.799 -0.021 -18.030 -0.014 -18.038 -0.013 -18.043 -0.013 -18.026 -0.014 -17.915 -0.017 -17.694 -0.045 8.088 0.553 1.325 0.139 42.728 42.267
-11.000 -17.830 -0.021 -18.058 -0.014 -18.066 -0.014 -18.071 -0.013 -18.053 -0.014 -17.941 -0.018 -17.722 -0.045 8.127 0.556 1.332 0.140 42.742 42.279
-10.000 -17.860 -0.022 -18.085 -0.015 -18.093 -0.014 -18.097 -0.013 -18.079 -0.014 -17.967 -0.018 -17.748 -0.045 8.163 0.558 1.339 0.140 42.754 42.291
-9.000 -17.887 -0.022 -18.110 -0.015 -18.118 -0.014 -18.121 -0.013 -18.103 -0.014 -17.991 -0.018 -17.774 -0.045 8.195 0.559 1.347 0.140 42.766 42.301
-8.000 -17.913 -0.022 -18.134 -0.015 -18.141 -0.014 -18.145 -0.013 -18.125 -0.014 -18.013 -0.018 -17.798 -0.045 8.222 0.559 1.355 0.139 42.776 42.309
-7.000 -17.936 -0.023 -18.155 -0.015 -18.162 -0.014 -18.166 -0.014 -18.147 -0.014 -18.035 -0.018 -17.821 -0.046 8.242 0.558 1.363 0.139 42.786 42.316
-6.000 -17.957 -0.023 -18.175 -0.015 -18.182 -0.014 -18.186 -0.014 -18.166 -0.014 -18.055 -0.018 -17.843 -0.046 8.255 0.554 1.372 0.139 42.795 42.321
-5.000 -17.976 -0.023 -18.194 -0.016 -18.201 -0.015 -18.204 -0.014 -18.184 -0.014 -18.073 -0.018 -17.864 -0.047 8.261 0.550 1.383 0.138 42.802 42.325
-4.000 -17.994 -0.024 -18.210 -0.016 -18.217 -0.015 -18.221 -0.014 -18.201 -0.014 -18.091 -0.018 -17.884 -0.047 8.260 0.543 1.394 0.138 42.809 42.326
-3.000 -18.009 -0.024 -18.225 -0.016 -18.232 -0.015 -18.235 -0.014 -18.216 -0.014 -18.107 -0.018 -17.902 -0.048 8.250 0.536 1.406 0.137 42.815 42.326
-2.000 -18.022 -0.024 -18.239 -0.016 -18.245 -0.015 -18.249 -0.014 -18.230 -0.014 -18.121 -0.018 -17.919 -0.049 8.233 0.526 1.419 0.137 42.819 42.324
-1.000 -18.034 -0.024 -18.250 -0.016 -18.257 -0.016 -18.260 -0.015 -18.242 -0.015 -18.134 -0.018 -17.935 -0.050 8.207 0.516 1.433 0.136 42.822 42.321
-0.000 -18.043 -0.024 -18.260 -0.017 -18.267 -0.016 -18.270 -0.015 -18.252 -0.015 -18.146 -0.018 -17.949 -0.052 8.174 0.504 1.449 0.135 42.825 42.315
1.000 -18.050 -0.024 -18.268 -0.017 -18.275 -0.016 -18.279 -0.015 -18.261 -0.015 -18.156 -0.018 -17.962 -0.054 8.133 0.491 1.465 0.135 42.826 42.308
2.000 -18.056 -0.024 -18.274 -0.018 -18.282 -0.017 -18.286 -0.016 -18.269 -0.016 -18.165 -0.019 -17.974 -0.055 8.085 0.477 1.483 0.134 42.826 42.299
3.000 -18.059 -0.024 -18.279 -0.018 -18.287 -0.018 -18.291 -0.017 -18.274 -0.017 -18.173 -0.019 -17.984 -0.057 8.031 0.462 1.501 0.133 42.825 42.289
4.000 -18.061 -0.025 -18.282 -0.019 -18.290 -0.019 -18.294 -0.018 -18.279 -0.017 -18.179 -0.020 -17.993 -0.060 7.974 0.447 1.520 0.133 42.823 42.277
5.000 -18.061 -0.025 -18.284 -0.020 -18.292 -0.020 -18.297 -0.019 -18.282 -0.019 -18.183 -0.021 -18.001 -0.062 7.914 0.432 1.539 0.132 42.821 42.264
6.000 -18.059 -0.025 -18.284 -0.021 -18.292 -0.021 -18.297 -0.020 -18.283 -0.020 -18.187 -0.023 -18.007 -0.065 7.854 0.417 1.557 0.131 42.818 42.250
7.000 -18.055 -0.026 -18.282 -0.023 -18.291 -0.022 -18.296 -0.022 -18.283 -0.022 -18.189 -0.024 -18.012 -0.068 7.799 0.403 1.573 0.130 42.814 42.237
8.000 -18.050 -0.027 -18.279 -0.024 -18.288 -0.024 -18.294 -0.024 -18.282 -0.024 -18.189 -0.026 -18.016 -0.071 7.747 0.390 1.588 0.129 42.811 42.223
9.000 -18.043 -0.028 -18.275 -0.026 -18.284 -0.026 -18.290 -0.026 -18.279 -0.026 -18.189 -0.028 -18.018 -0.075 7.698 0.378 1.600 0.128 42.807 42.211
10.000 -18.034 -0.029 -18.269 -0.028 -18.278 -0.028 -18.284 -0.028 -18.275 -0.028 -18.187 -0.031 -18.020 -0.078 7.653 0.368 1.611 0.127 42.802 42.198
11.000 -18.024 -0.031 -18.261 -0.031 -18.271 -0.031 -18.278 -0.031 -18.269 -0.030 -18.183 -0.033 -18.020 -0.082 7.610 0.360 1.620 0.126 42.798 42.187
12.000 -18.012 -0.033 -18.252 -0.033 -18.262 -0.033 -18.270 -0.033 -18.263 -0.033 -18.179 -0.036 -18.018 -0.087 7.571 0.353 1.628 0.126 42.793 42.176
13.000 -17.999 -0.036 -18.242 -0.036 -18.252 -0.036 -18.260 -0.036 -18.254 -0.036 -18.173 -0.039 -18.016 -0.091 7.534 0.347 1.634 0.125 42.787 42.166
14.000 -17.984 -0.039 -18.231 -0.039 -18.241 -0.039 -18.250 -0.039 -18.245 -0.039 -18.166 -0.043 -18.012 -0.096 7.498 0.341 1.638 0.125 42.781 42.156
15.000 -17.968 -0.042 -18.218 -0.042 -18.229 -0.043 -18.238 -0.043 -18.235 -0.043 -18.158 -0.046 -18.008 -0.101 7.464 0.336 1.642 0.124 42.775 42.147
16.000 -17.950 -0.046 -18.204 -0.046 -18.216 -0.046 -18.225 -0.046 -18.223 -0.046 -18.149 -0.050 -18.002 -0.106 7.430 0.332 1.644 0.124 42.769 42.137
17.000 -17.932 -0.050 -18.189 -0.050 -18.201 -0.050 -18.211 -0.050 -18.210 -0.050 -18.138 -0.054 -17.995 -0.111 7.389 0.327 1.649 0.123 42.761 42.126
18.000 -17.912 -0.054 -18.173 -0.053 -18.185 -0.054 -18.196 -0.054 -18.197 -0.054 -18.127 -0.058 -17.987 -0.116 7.356 0.323 1.650 0.123 42.754 42.116
19.000 -17.891 -0.058 -18.156 -0.057 -18.169 -0.058 -18.180 -0.058 -18.182 -0.058 -18.115 -0.062 -17.978 -0.122 7.322 0.319 1.650 0.122 42.746 42.106
20.000 -17.869 -0.063 -18.138 -0.062 -18.151 -0.062 -18.163 -0.062 -18.166 -0.062 -18.101 -0.067 -17.968 -0.128 7.288 0.315 1.650 0.122 42.738 42.095
21.000 -17.846 -0.068 -18.119 -0.066 -18.133 -0.066 -18.145 -0.066 -18.150 -0.066 -18.087 -0.071 -17.957 -0.134 7.254 0.312 1.649 0.121 42.730 42.084
22.000 -17.822 -0.074 -18.099 -0.070 -18.113 -0.071 -18.126 -0.071 -18.132 -0.071 -18.072 -0.076 -17.945 -0.140 7.220 0.308 1.648 0.120 42.721 42.072
23.000 -17.797 -0.079 -18.079 -0.075 -18.093 -0.075 -18.106 -0.075 -18.114 -0.075 -18.056 -0.081 -17.932 -0.146 7.185 0.304 1.647 0.120 42.712 42.060
24.000 -17.772 -0.085 -18.057 -0.080 -18.072 -0.080 -18.086 -0.080 -18.095 -0.080 -18.039 -0.086 -17.919 -0.153 7.151 0.300 1.645 0.119 42.702 42.048
25.000 -17.745 -0.091 -18.035 -0.085 -18.050 -0.085 -18.065 -0.085 -18.075 -0.085 -18.022 -0.091 -17.905 -0.159 7.116 0.296 1.643 0.118 42.693 42.036
26.000 -17.718 -0.097 -18.012 -0.090 -18.028 -0.090 -18.043 -0.090 -18.055 -0.090 -18.004 -0.096 -17.890 -0.166 7.081 0.293 1.640 0.118 42.683 42.023
27.000 -17.690 -0.104 -17.989 -0.095 -18.005 -0.095 -18.021 -0.095 -18.034 -0.095 -17.985 -0.102 -17.874 -0.173 7.046 0.289 1.637 0.117 42.673 42.011
28.000 -17.662 -0.110 -17.965 -0.100 -17.982 -0.100 -17.998 -0.100 -18.013 -0.100 -17.966 -0.107 -17.858 -0.180 7.011 0.286 1.634 0.116 42.663 41.998
29.000 -17.633 -0.117 -17.941 -0.106 -17.958 -0.106 -17.975 -0.105 -17.991 -0.105 -17.946 -0.113 -17.841 -0.187 6.977 0.283 1.631 0.116 42.652 41.985
30.000 -17.604 -0.124 -17.916 -0.111 -17.934 -0.111 -17.951 -0.111 -17.968 -0.111 -17.925 -0.118 -17.823 -0.194 6.943 0.279 1.627 0.115 42.642 41.973
31.000 -17.575 -0.131 -17.891 -0.117 -17.909 -0.116 -17.927 -0.116 -17.945 -0.116 -17.905 -0.124 -17.805 -0.201 6.909 0.276 1.622 0.115 42.631 41.960
32.000 -17.545 -0.138 -17.866 -0.122 -17.884 -0.122 -17.903 -0.122 -17.922 -0.121 -17.883 -0.130 -17.787 -0.209 6.876 0.274 1.618 0.114 42.620 41.948
33.000 -17.515 -0.145 -17.840 -0.128 -17.859 -0.128 -17.878 -0.127 -17.899 -0.127 -17.862 -0.136 -17.768 -0.216 6.843 0.271 1.613 0.113 42.609 41.935
34.000 -17.485 -0.153 -17.814 -0.134 -17.834 -0.133 -17.853 -0.133 -17.875 -0.132 -17.840 -0.142 -17.749 -0.223 6.811 0.269 1.608 0.113 42.598 41.923
35.000 -17.454 -0.160 -17.788 -0.139 -17.808 -0.139 -17.828 -0.138 -17.852 -0.138 -17.818 -0.148 -17.730 -0.231 6.780 0.266 1.603 0.113 42.587 41.911
36.000 -17.424 -0.168 -17.762 -0.145 -17.782 -0.145 -17.803 -0.144 -17.828 -0.144 -17.796 -0.153 -17.710 -0.238 6.749 0.264 1.597 0.112 42.577 41.900
37.000 -17.393 -0.176 -17.736 -0.151 -17.757 -0.150 -17.778 -0.150 -17.804 -0.149 -17.773 -0.159 -17.690 -0.245 6.720 0.262 1.591 0.112 42.566 41.888
38.000 -17.363 -0.183 -17.710 -0.157 -17.731 -0.156 -17.753 -0.155 -17.780 -0.155 -17.751 -0.165 -17.670 -0.253 6.691 0.261 1.585 0.112 42.555 41.877
39.000 -17.332 -0.191 -17.684 -0.163 -17.706 -0.162 -17.728 -0.161 -17.756 -0.160 -17.728 -0.171 -17.649 -0.260 6.662 0.259 1.579 0.111 42.544 41.866
40.000 -17.302 -0.199 -17.659 -0.168 -17.680 -0.167 -17.703 -0.166 -17.732 -0.166 -17.705 -0.177 -17.629 -0.267 6.635 0.258 1.572 0.111 42.533 41.856
41.000 -17.272 -0.207 -17.633 -0.174 -17.655 -0.173 -17.678 -0.172 -17.708 -0.171 -17.683 -0.183 -17.609 -0.274 6.608 0.257 1.566 0.111 42.523 41.846
42.000 -17.242 -0.214 -17.608 -0.180 -17.630 -0.179 -17.653 -0.177 -17.684 -0.177 -17.660 -0.189 -17.588 -0.282 6.582 0.256 1.559 0.111 42.512 41.836
43.000 -17.212 -0.222 -17.582 -0.185 -17.605 -0.184 -17.629 -0.183 -17.661 -0.182 -17.638 -0.195 -17.568 -0.289 6.558 0.256 1.552 0.111 42.502 41.827
44.000 -17.183 -0.230 -17.557 -0.191 -17.580 -0.190 -17.605 -0.188 -17.637 -0.187 -17.616 -0.201 -17.547 -0.296 6.534 0.255 1.545 0.111 42.491 41.818
45.000 -17.154 -0.238 -17.533 -0.197 -17.556 -0.195 -17.581 -0.194 -17.614 -0.193 -17.594 -0.206 -17.527 -0.302 6.511 0.255 1.538 0.111 42.481 41.810
46.000 -17.126 -0.245 -17.509 -0.202 -17.532 -0.200 -17.557 -0.199 -17.592 -0.198 -17.572 -0.212 -17.507 -0.309 6.488 0.255 1.531 0.111 42.471 41.802
47.000 -17.098 -0.253 -17.485 -0.207 -17.509 -0.206 -17.534 -0.204 -17.569 -0.203 -17.550 -0.217 -17.487 -0.316 6.467 0.255 1.524 0.111 42.462 41.794
48.000 -17.070 -0.260 -17.461 -0.213 -17.486 -0.211 -17.511 -0.209 -17.547 -0.208 -17.529 -0.223 -17.468 -0.322 6.447 0.255 1.517 0.112 42.452 41.787
49.000 -17.043 -0.268 -17.438 -0.218 -17.463 -0.216 -17.489 -0.214 -17.526 -0.213 -17.508 -0.228 -17.448 -0.329 6.427 0.256 1.510 0.112 42.443 41.780
50.000 -17.016 -0.275 -17.416 -0.223 -17.441 -0.221 -17.467 -0.219 -17.504 -0.218 -17.487 -0.233 -17.429 -0.335 6.408 0.257 1.502 0.112 42.433 41.774
51.000 -16.990 -0.282 -17.394 -0.228 -17.419 -0.226 -17.446 -0.224 -17.484 -0.222 -17.467 -0.238 -17.410 -0.341 6.390 0.258 1.495 0.113 42.424 41.768
52.000 -16.965 -0.289 -17.373 -0.232 -17.398 -0.230 -17.425 -0.228 -17.464 -0.227 -17.447 -0.243 -17.392 -0.346 6.373 0.259 1.488 0.113 42.416 41.763
53.000 -16.940 -0.296 -17.352 -0.237 -17.378 -0.235 -17.405 -0.232 -17.444 -0.231 -17.428 -0.247 -17.374 -0.352 6.357 0.260 1.481 0.114 42.407 41.758
54.000 -16.916 -0.303 -17.332 -0.241 -17.358 -0.239 -17.385 -0.237 -17.425 -0.235 -17.409 -0.252 -17.356 -0.357 6.341 0.261 1.474 0.114 42.399 41.753
55.000 -16.892 -0.310 -17.312 -0.246 -17.338 -0.243 -17.366 -0.241 -17.406 -0.239 -17.391 -0.256 -17.339 -0.362 6.327 0.263 1.468 0.115 42.391 41.749
56.000 -16.869 -0.316 -17.293 -0.250 -17.320 -0.247 -17.348 -0.244 -17.388 -0.243 -17.373 -0.260 -17.322 -0.367 6.313 0.264 1.461 0.115 42.383 41.745
57.000 -16.847 -0.322 -17.275 -0.254 -17.301 -0.251 -17.330 -0.248 -17.370 -0.246 -17.355 -0.264 -17.305 -0.372 6.299 0.266 1.454 0.116 42.375 41.742
58.000 -16.825 -0.329 -17.257 -0.257 -17.284 -0.254 -17.313 -0.252 -17.353 -0.250 -17.338 -0.267 -17.289 -0.376 6.287 0.268 1.448 0.117 42.368 41.739
59.000 -16.804 -0.334 -17.240 -0.261 -17.267 -0.258 -17.296 -0.255 -17.337 -0.253 -17.322 -0.271 -17.274 -0.380 6.275 0.270 1.442 0.118 42.361 41.736
60.000 -16.784 -0.340 -17.223 -0.264 -17.251 -0.261 -17.280 -0.258 -17.321 -0.256 -17.306 -0.274 -17.259 -0.384 6.264 0.272 1.436 0.118 42.354 41.734
61.000 -16.765 -0.345 -17.208 -0.267 -17.235 -0.264 -17.265 -0.261 -17.306 -0.259 -17.291 -0.277 -17.244 -0.388 6.253 0.274 1.430 0.119 42.348 41.732
62.000 -16.746 -0.351 -17.192 -0.270 -17.220 -0.266 -17.250 -0.263 -17.292 -0.261 -17.276 -0.280 -17.231 -0.391 6.243 0.277 1.424 0.120 42.342 41.730
63.000 -16.728 -0.356 -17.178 -0.272 -17.206 -0.269 -17.236 -0.266 -17.278 -0.263 -17.262 -0.282 -17.217 -0.394 6.234 0.279 1.419 0.121 42.336 41.729
64.000 -16.710 -0.360 -17.164 -0.275 -17.192 -0.271 -17.223 -0.268 -17.265 -0.265 -17.248 -0.284 -17.204 -0.396 6.225 0.282 1.414 0.122 42.330 41.728
65.000 -16.694 -0.365 -17.151 -0.277 -17.180 -0.273 -17.210 -0.269 -17.252 -0.267 -17.235 -0.286 -17.192 -0.399 6.216 0.284 1.409 0.123 42.325 41.727
66.000 -16.677 -0.369 -17.139 -0.279 -17.167 -0.275 -17.198 -0.271 -17.240 -0.269 -17.223 -0.288 -17.180 -0.401 6.208 0.287 1.404 0.124 42.319 41.727
67.000 -16.662 -0.373 -17.127 -0.280 -17.156 -0.276 -17.186 -0.272 -17.229 -0.270 -17.211 -0.289 -17.169 -0.402 6.201 0.290 1.399 0.125 42.315 41.727
68.000 -16.647 -0.376 -17.116 -0.281 -17.145 -0.277 -17.175 -0.273 -17.218 -0.271 -17.200 -0.290 -17.159 -0.404 6.194 0.293 1.395 0.126 42.310 41.727
69.000 -16.633 -0.380 -17.105 -0.282 -17.134 -0.278 -17.165 -0.274 -17.208 -0.272 -17.189 -0.291 -17.148 -0.405 6.187 0.296 1.391 0.127 42.306 41.728
70.000 -16.620 -0.383 -17.095 -0.283 -17.124 -0.279 -17.156 -0.275 -17.198 -0.272 -17.179 -0.292 -17.139 -0.405 6.181 0.299 1.387 0.128 42.301 41.729
71.000 -16.607 -0.385 -17.086 -0.284 -17.115 -0.279 -17.146 -0.275 -17.189 -0.272 -17.170 -0.292 -17.130 -0.406 6.175 0.302 1.384 0.129 42.298 41.730
72.000 -16.595 -0.388 -17.077 -0.284 -17.107 -0.279 -17.138 -0.275 -17.181 -0.272 -17.161 -0.292 -17.121 -0.406 6.170 0.305 1.380 0.131 42.294 41.731
73.000 -16.583 -0.390 -17.069 -0.284 -17.099 -0.279 -17.130 -0.275 -17.173 -0.272 -17.152 -0.291 -17.114 -0.405 6.165 0.308 1.377 0.132 42.291 41.732
74.000 -16.572 -0.392 -17.061 -0.284 -17.091 -0.279 -17.123 -0.274 -17.166 -0.271 -17.144 -0.291 -17.106 -0.405 6.160 0.311 1.374 0.133 42.287 41.734
75.000 -16.561 -0.394 -17.054 -0.283 -17.084 -0.278 -17.116 -0.274 -17.159 -0.270 -17.137 -0.290 -17.099 -0.404 6.155 0.314 1.372 0.134 42.284 41.736
76.000 -16.551 -0.395 -17.048 -0.282 -17.078 -0.277 -17.110 -0.272 -17.153 -0.269 -17.130 -0.289 -17.093 -0.402 6.151 0.317 1.369 0.135 42.282 41.738
77.000 -16.542 -0.396 -17.041 -0.281 -17.072 -0.276 -17.104 -0.271 -17.147 -0.268 -17.124 -0.287 -17.087 -0.401 6.146 0.321 1.367 0.137 42.279 41.740
78.000 -16.533 -0.397 -17.036 -0.279 -17.067 -0.274 -17.099 -0.269 -17.142 -0.266 -17.118 -0.285 -17.082 -0.399 6.142 0.324 1.365 0.138 42.277 41.742
79.000 -16.524 -0.397 -17.031 -0.278 -17.062 -0.273 -17.094 -0.268 -17.137 -0.264 -17.112 -0.283 -17.077 -0.396 6.139 0.327 1.364 0.139 42.275 41.745
