"Time (MJD)" "Temp./1e3 (K)" "Temp. Err." "Radius/1e15 (cm)" "Radius Err." "Bol. Lum" "Bol. Err"
-48.968 4.721 0.005 0.243 0.001 40.321 37.751
-47.966 4.674 0.004 0.248 0.001 40.322 37.708
-46.963 4.628 0.004 0.254 0.001 40.323 37.679
-45.961 4.592 0.003 0.259 0.001 40.326 37.660
-44.959 4.554 0.003 0.264 0.001 40.328 37.655
-43.956 4.510 0.003 0.270 0.001 40.331 37.660
-42.954 4.456 0.003 0.277 0.001 40.335 37.675
-41.951 4.402 0.003 0.286 0.001 40.339 37.693
-40.949 4.347 0.003 0.295 0.001 40.344 37.712
-39.947 4.293 0.003 0.304 0.001 40.349 37.731
-38.944 4.242 0.003 0.313 0.001 40.354 37.750
-37.942 4.236 0.003 0.315 0.001 40.357 37.760
-36.940 4.204 0.003 0.322 0.001 40.362 37.777
-35.937 4.176 0.003 0.327 0.001 40.365 37.794
-34.935 4.146 0.003 0.331 0.001 40.364 37.807
-33.933 4.117 0.003 0.336 0.001 40.363 37.819
-32.930 4.102 0.004 0.338 0.001 40.364 37.832
-31.928 4.084 0.004 0.342 0.001 40.365 37.844
-30.926 4.066 0.004 0.346 0.001 40.367 37.853
-29.923 4.046 0.004 0.350 0.001 40.369 37.860
-28.921 4.026 0.004 0.354 0.001 40.371 37.864
-27.918 4.006 0.004 0.359 0.001 40.374 37.864
-26.916 3.985 0.004 0.364 0.001 40.377 37.862
-25.914 3.963 0.003 0.370 0.001 40.380 37.856
-24.911 3.942 0.003 0.375 0.001 40.384 37.847
-23.909 3.920 0.003 0.381 0.001 40.389 37.835
-22.907 3.899 0.003 0.388 0.001 40.393 37.821
-21.904 3.877 0.003 0.394 0.001 40.399 37.805
-20.902 3.855 0.003 0.402 0.001 40.404 37.790
-19.900 3.833 0.003 0.409 0.001 40.410 37.778
-18.897 3.835 0.002 0.406 0.001 40.405 37.765
-17.895 3.716 0.002 0.464 0.001 40.466 37.839
-16.892 3.701 0.002 0.467 0.001 40.464 37.839
-15.890 3.684 0.002 0.470 0.001 40.463 37.841
-14.888 3.666 0.002 0.475 0.001 40.463 37.844
-13.885 3.646 0.002 0.480 0.001 40.463 37.843
-12.883 3.625 0.002 0.487 0.001 40.465 37.839
-11.881 3.604 0.002 0.494 0.001 40.466 37.829
-10.878 3.584 0.002 0.500 0.001 40.468 37.808
-9.876 3.607 0.002 0.490 0.001 40.463 37.766
-8.874 5.049 0.003 0.237 0.000 40.416 37.510
-7.871 4.899 0.002 0.267 0.000 40.465 37.522
-6.869 4.765 0.002 0.297 0.000 40.509 37.544
-5.867 3.506 0.001 0.536 0.001 40.490 37.679
-4.864 4.010 0.002 0.406 0.001 40.483 37.670
-3.862 4.653 0.002 0.309 0.001 40.503 37.712
-2.859 5.394 0.004 0.216 0.000 40.451 37.694
-1.857 6.586 0.008 0.142 0.000 40.433 37.659
-0.855 8.264 0.015 0.097 0.000 40.493 37.678
0.148 11.723 0.038 0.060 0.000 40.678 38.245
1.150 12.213 0.048 0.056 0.000 40.700 38.364
2.152 12.783 0.060 0.053 0.000 40.727 38.488
3.155 13.447 0.075 0.050 0.000 40.759 38.618
4.157 14.222 0.094 0.046 0.000 40.797 38.756
5.159 15.135 0.119 0.043 0.000 40.841 38.903
6.162 16.219 0.153 0.040 0.000 40.894 39.063
7.164 17.522 0.199 0.037 0.000 40.956 39.237
8.166 19.115 0.264 0.034 0.001 41.029 39.427
9.169 21.047 0.359 0.031 0.001 41.115 39.632
10.171 20.592 0.368 0.031 0.001 41.088 39.621
11.174 20.153 0.378 0.031 0.001 41.062 39.610
12.176 19.731 0.388 0.032 0.001 41.036 39.600
13.178 19.327 0.398 0.032 0.001 41.011 39.590
14.181 18.941 0.407 0.033 0.001 40.986 39.580
15.183 18.573 0.417 0.033 0.001 40.962 39.571
16.185 18.222 0.426 0.033 0.001 40.939 39.561
17.188 17.888 0.435 0.034 0.001 40.916 39.551
18.190 17.569 0.444 0.034 0.001 40.894 39.542
19.192 17.266 0.453 0.034 0.001 40.872 39.532
20.195 17.089 0.468 0.034 0.001 40.856 39.533
21.197 16.700 0.469 0.035 0.001 40.830 39.513
22.199 16.536 0.484 0.035 0.001 40.815 39.513
23.202 16.185 0.484 0.036 0.001 40.791 39.493
24.204 16.032 0.498 0.036 0.001 40.776 39.492
25.207 15.715 0.498 0.036 0.001 40.753 39.474
26.209 15.572 0.511 0.036 0.001 40.738 39.472
27.211 15.284 0.511 0.037 0.002 40.717 39.454
28.214 15.091 0.518 0.037 0.002 40.700 39.445
29.216 14.957 0.529 0.037 0.002 40.686 39.441
30.218 14.701 0.529 0.037 0.002 40.666 39.424
31.221 14.530 0.535 0.038 0.002 40.650 39.415
32.223 14.358 0.540 0.038 0.002 40.634 39.405
33.225 14.191 0.546 0.038 0.002 40.619 39.394
34.228 14.031 0.550 0.038 0.002 40.603 39.384
35.230 13.876 0.555 0.038 0.002 40.588 39.374
36.233 13.726 0.560 0.038 0.002 40.573 39.364
37.235 13.582 0.564 0.039 0.002 40.558 39.354
38.237 13.442 0.568 0.039 0.002 40.544 39.344
39.240 13.307 0.572 0.039 0.002 40.530 39.333
40.242 13.176 0.576 0.039 0.002 40.516 39.323
41.244 13.050 0.579 0.039 0.002 40.502 39.313
42.247 12.927 0.583 0.039 0.002 40.489 39.303
43.249 12.807 0.586 0.039 0.002 40.475 39.292
44.251 12.692 0.589 0.040 0.002 40.462 39.282
45.254 12.579 0.592 0.040 0.003 40.449 39.272
46.256 12.470 0.595 0.040 0.003 40.436 39.261
47.258 12.364 0.598 0.040 0.003 40.424 39.251
48.261 12.260 0.601 0.040 0.003 40.411 39.241
49.263 12.160 0.603 0.040 0.003 40.399 39.230
50.266 12.062 0.605 0.040 0.003 40.386 39.220
51.268 11.966 0.608 0.040 0.003 40.374 39.210
52.270 11.873 0.610 0.040 0.003 40.362 39.199
53.273 11.782 0.612 0.040 0.003 40.351 39.189
54.275 11.693 0.613 0.040 0.003 40.339 39.179
55.277 11.607 0.615 0.041 0.003 40.327 39.168
56.280 11.522 0.617 0.041 0.003 40.316 39.158
57.282 11.440 0.618 0.041 0.003 40.304 39.147
58.284 11.359 0.620 0.041 0.003 40.293 39.137
59.287 11.280 0.621 0.041 0.003 40.282 39.126
60.289 11.203 0.622 0.041 0.003 40.271 39.116
61.291 11.127 0.623 0.041 0.003 40.260 39.106
62.294 11.053 0.624 0.041 0.003 40.249 39.095
63.296 10.980 0.625 0.041 0.003 40.238 39.085
64.299 10.909 0.625 0.041 0.004 40.227 39.074
65.301 10.840 0.626 0.041 0.004 40.217 39.064
66.303 10.772 0.627 0.041 0.004 40.206 39.053
67.306 10.705 0.627 0.041 0.004 40.196 39.043
68.308 10.639 0.627 0.041 0.004 40.185 39.032
69.310 10.575 0.628 0.041 0.004 40.175 39.022
70.313 10.512 0.628 0.041 0.004 40.165 39.011
71.315 10.449 0.628 0.041 0.004 40.154 39.001
72.317 10.389 0.628 0.041 0.004 40.144 38.990
73.320 10.329 0.628 0.041 0.004 40.134 38.980
74.322 10.270 0.628 0.041 0.004 40.124 38.969
75.324 10.212 0.628 0.041 0.004 40.114 38.959
76.327 10.155 0.627 0.041 0.004 40.104 38.949
77.329 10.100 0.627 0.041 0.004 40.095 38.938
78.332 10.045 0.626 0.041 0.004 40.085 38.928
79.334 9.991 0.626 0.041 0.004 40.075 38.917
80.336 9.937 0.625 0.041 0.004 40.065 38.907
81.339 9.885 0.624 0.041 0.004 40.056 38.896
82.341 9.834 0.624 0.041 0.004 40.046 38.886
83.343 9.783 0.623 0.041 0.004 40.037 38.876
84.346 9.733 0.622 0.041 0.004 40.027 38.865
85.348 9.684 0.621 0.041 0.004 40.018 38.855
86.350 9.635 0.620 0.041 0.004 40.008 38.845
87.353 9.588 0.619 0.041 0.004 39.999 38.834
88.355 9.541 0.618 0.041 0.004 39.990 38.824
89.358 9.494 0.617 0.041 0.004 39.981 38.814
90.360 9.449 0.615 0.041 0.004 39.971 38.803
91.362 9.404 0.614 0.041 0.004 39.962 38.793
92.365 9.359 0.613 0.041 0.004 39.953 38.783
93.367 9.316 0.611 0.040 0.004 39.944 38.773
94.369 9.272 0.610 0.040 0.004 39.935 38.763
95.372 9.230 0.608 0.040 0.005 39.926 38.752
96.374 9.188 0.607 0.040 0.005 39.917 38.742
97.376 9.146 0.605 0.040 0.005 39.908 38.732
98.379 9.105 0.603 0.040 0.005 39.899 38.722
99.381 9.065 0.602 0.040 0.005 39.890 38.712
100.383 9.025 0.600 0.040 0.005 39.882 38.702
101.386 8.985 0.598 0.040 0.005 39.873 38.692
102.388 8.946 0.596 0.040 0.005 39.864 38.682
103.391 8.908 0.594 0.040 0.005 39.855 38.672
104.393 8.870 0.592 0.040 0.005 39.846 38.662
105.395 8.832 0.590 0.040 0.005 39.838 38.652
106.398 8.795 0.588 0.040 0.005 39.829 38.643
107.400 8.759 0.586 0.040 0.005 39.821 38.633
108.402 8.722 0.584 0.040 0.005 39.812 38.623
109.405 8.687 0.582 0.040 0.005 39.803 38.613
110.407 8.651 0.579 0.040 0.005 39.795 38.604
111.409 8.616 0.577 0.039 0.005 39.786 38.594
112.412 8.582 0.575 0.039 0.005 39.778 38.584
113.414 8.548 0.572 0.039 0.005 39.769 38.575
114.416 8.514 0.570 0.039 0.005 39.761 38.565
115.419 8.480 0.568 0.039 0.005 39.753 38.556
116.421 8.447 0.565 0.039 0.005 39.744 38.547
117.424 8.414 0.563 0.039 0.005 39.736 38.537
118.426 8.382 0.560 0.039 0.005 39.728 38.528
119.428 8.350 0.558 0.039 0.005 39.719 38.519
120.431 8.318 0.555 0.039 0.005 39.711 38.509
121.433 8.287 0.552 0.039 0.005 39.703 38.500
122.435 8.256 0.550 0.039 0.005 39.694 38.491
123.438 8.225 0.547 0.039 0.005 39.686 38.482
124.440 8.194 0.544 0.039 0.005 39.678 38.473
125.442 8.164 0.542 0.038 0.005 39.670 38.464
126.445 8.134 0.539 0.038 0.005 39.662 38.455
127.447 8.105 0.536 0.038 0.005 39.654 38.446
128.449 8.076 0.533 0.038 0.005 39.645 38.437
129.452 8.047 0.531 0.038 0.005 39.637 38.428
130.454 8.018 0.528 0.038 0.005 39.629 38.419
131.457 7.990 0.525 0.038 0.005 39.621 38.410
132.459 7.961 0.522 0.038 0.005 39.613 38.402
133.461 7.933 0.519 0.038 0.005 39.605 38.393
134.464 7.906 0.516 0.038 0.005 39.597 38.384
135.466 7.878 0.513 0.038 0.005 39.589 38.376
136.468 7.851 0.510 0.038 0.005 39.581 38.367
137.471 7.824 0.507 0.037 0.005 39.573 38.359
138.473 7.798 0.504 0.037 0.005 39.565 38.350
139.475 7.771 0.501 0.037 0.005 39.558 38.342
140.478 7.745 0.498 0.037 0.005 39.550 38.333
141.480 7.719 0.495 0.037 0.005 39.542 38.325
142.483 7.693 0.492 0.037 0.005 39.534 38.316
143.485 7.668 0.489 0.037 0.005 39.526 38.308
144.487 7.642 0.485 0.037 0.005 39.518 38.300
145.490 7.617 0.482 0.037 0.005 39.510 38.292
146.492 7.593 0.479 0.037 0.005 39.503 38.283
147.494 7.568 0.476 0.037 0.005 39.495 38.275
148.497 7.543 0.473 0.036 0.005 39.487 38.267
149.499 7.519 0.469 0.036 0.005 39.479 38.259
150.501 7.495 0.466 0.036 0.005 39.472 38.251
151.504 7.471 0.463 0.036 0.005 39.464 38.243
152.506 7.447 0.460 0.036 0.005 39.456 38.234
153.508 7.424 0.456 0.036 0.004 39.449 38.226
154.511 7.401 0.453 0.036 0.004 39.441 38.218
155.513 7.378 0.450 0.036 0.004 39.433 38.210
156.516 7.355 0.446 0.036 0.004 39.426 38.202
157.518 7.332 0.443 0.036 0.004 39.418 38.194
158.520 7.309 0.440 0.036 0.004 39.410 38.186
159.523 7.287 0.436 0.035 0.004 39.403 38.179
160.525 7.265 0.433 0.035 0.004 39.395 38.171
161.527 7.242 0.430 0.035 0.004 39.388 38.163
162.530 7.221 0.426 0.035 0.004 39.380 38.155
163.532 7.199 0.423 0.035 0.004 39.372 38.147
164.534 7.156 0.416 0.035 0.004 39.357 38.131
165.537 7.134 0.413 0.035 0.004 39.350 38.123
166.539 7.113 0.409 0.035 0.004 39.342 38.115
167.541 7.092 0.406 0.035 0.004 39.335 38.107
168.544 7.072 0.403 0.035 0.004 39.327 38.100
169.546 7.051 0.399 0.034 0.004 39.320 38.092
170.549 7.030 0.396 0.034 0.004 39.313 38.084
171.551 7.010 0.392 0.034 0.004 39.305 38.076
172.553 6.990 0.389 0.034 0.004 39.298 38.068
173.556 6.969 0.385 0.034 0.004 39.290 38.060
174.558 6.949 0.382 0.034 0.004 39.283 38.052
175.560 6.930 0.378 0.034 0.004 39.276 38.044
176.563 6.910 0.375 0.034 0.004 39.268 38.036
177.565 6.890 0.372 0.034 0.004 39.261 38.028
178.567 6.871 0.368 0.034 0.004 39.253 38.020
179.570 6.851 0.365 0.034 0.004 39.246 38.012
180.572 6.832 0.361 0.033 0.004 39.239 38.004
181.574 6.813 0.358 0.033 0.004 39.231 37.996
182.577 6.794 0.354 0.033 0.004 39.224 37.988
183.579 6.775 0.351 0.033 0.004 39.217 37.980
184.582 6.757 0.347 0.033 0.004 39.210 37.972
185.584 6.738 0.344 0.033 0.004 39.202 37.964
186.586 6.719 0.340 0.033 0.004 39.195 37.956
187.589 6.701 0.337 0.033 0.004 39.188 37.948
188.591 6.683 0.333 0.033 0.004 39.180 37.940
189.593 6.665 0.330 0.033 0.004 39.173 37.932
190.596 6.647 0.326 0.032 0.004 39.166 37.923
191.598 6.629 0.323 0.032 0.004 39.159 37.915
192.600 6.611 0.319 0.032 0.004 39.152 37.907
193.603 6.593 0.316 0.032 0.003 39.144 37.898
194.605 6.575 0.312 0.032 0.003 39.137 37.890
195.608 6.558 0.309 0.032 0.003 39.130 37.882
196.610 6.540 0.306 0.032 0.003 39.123 37.873
197.612 6.523 0.302 0.032 0.003 39.116 37.865
198.615 6.506 0.299 0.032 0.003 39.109 37.856
199.617 6.488 0.295 0.032 0.003 39.102 37.848
200.619 6.471 0.292 0.032 0.003 39.094 37.839
201.622 6.454 0.288 0.031 0.003 39.087 37.831
202.624 6.438 0.285 0.031 0.003 39.080 37.822
203.626 6.421 0.281 0.031 0.003 39.073 37.813
204.629 6.404 0.278 0.031 0.003 39.066 37.804
205.631 6.387 0.275 0.031 0.003 39.059 37.796
206.633 6.371 0.271 0.031 0.003 39.052 37.787
207.636 6.354 0.268 0.031 0.003 39.045 37.778
208.638 6.338 0.264 0.031 0.003 39.038 37.769
209.641 6.322 0.261 0.031 0.003 39.031 37.760
210.643 6.305 0.257 0.031 0.003 39.024 37.751
211.645 6.289 0.254 0.031 0.003 39.017 37.741
212.648 6.273 0.251 0.030 0.003 39.010 37.732
213.650 6.257 0.247 0.030 0.003 39.003 37.723
214.652 6.241 0.244 0.030 0.003 38.996 37.714
215.655 6.225 0.241 0.030 0.003 38.989 37.704
216.657 6.210 0.237 0.030 0.003 38.982 37.695
217.659 6.194 0.234 0.030 0.003 38.975 37.685
218.662 6.178 0.231 0.030 0.003 38.968 37.676
219.664 6.163 0.227 0.030 0.003 38.961 37.666
220.666 6.147 0.224 0.030 0.003 38.954 37.656
221.669 6.132 0.221 0.030 0.003 38.947 37.647
222.671 6.116 0.217 0.030 0.003 38.941 37.637
223.674 6.101 0.214 0.029 0.003 38.934 37.627
224.676 6.086 0.211 0.029 0.002 38.927 37.617
225.678 6.070 0.207 0.029 0.002 38.920 37.607
226.681 6.055 0.204 0.029 0.002 38.913 37.596
227.683 6.040 0.201 0.029 0.002 38.906 37.586
228.685 6.025 0.198 0.029 0.002 38.899 37.576
229.688 6.010 0.194 0.029 0.002 38.893 37.565
230.690 5.995 0.191 0.029 0.002 38.886 37.555
231.692 5.980 0.188 0.029 0.002 38.879 37.544
232.695 5.965 0.185 0.029 0.002 38.872 37.534
233.697 5.950 0.182 0.029 0.002 38.866 37.523
234.699 5.935 0.178 0.029 0.002 38.859 37.512
235.702 5.921 0.175 0.029 0.002 38.852 37.501
236.704 5.906 0.172 0.028 0.002 38.845 37.490
237.707 5.891 0.169 0.028 0.002 38.839 37.478
238.709 5.877 0.166 0.028 0.002 38.832 37.467
239.711 5.862 0.163 0.028 0.002 38.825 37.456
240.714 5.847 0.160 0.028 0.002 38.819 37.444
241.716 5.833 0.157 0.028 0.002 38.812 37.432
242.718 5.818 0.153 0.028 0.002 38.805 37.421
243.721 5.804 0.150 0.028 0.002 38.799 37.409
244.723 5.789 0.147 0.028 0.002 38.792 37.397
245.725 5.774 0.144 0.028 0.002 38.786 37.384
246.728 5.760 0.141 0.028 0.002 38.779 37.372
247.730 5.745 0.138 0.028 0.002 38.773 37.360
248.733 5.731 0.135 0.028 0.002 38.766 37.347
249.735 5.716 0.132 0.027 0.002 38.760 37.334
250.737 5.702 0.129 0.027 0.002 38.753 37.321
251.740 5.687 0.127 0.027 0.002 38.747 37.308
252.742 5.673 0.124 0.027 0.002 38.740 37.295
253.744 5.658 0.121 0.027 0.002 38.734 37.282
254.747 5.644 0.118 0.027 0.001 38.727 37.268
255.749 5.629 0.115 0.027 0.001 38.721 37.254
256.751 5.615 0.112 0.027 0.001 38.715 37.240
257.754 5.600 0.109 0.027 0.001 38.708 37.226
258.756 5.585 0.107 0.027 0.001 38.702 37.212
259.758 5.571 0.104 0.027 0.001 38.696 37.197
260.761 5.556 0.101 0.027 0.001 38.689 37.183
261.763 5.541 0.098 0.027 0.001 38.683 37.168
262.766 5.526 0.096 0.027 0.001 38.677 37.152
263.768 5.512 0.093 0.027 0.001 38.671 37.137
264.770 5.497 0.090 0.027 0.001 38.665 37.121
265.773 5.481 0.087 0.027 0.001 38.659 37.105
266.775 5.466 0.085 0.027 0.001 38.653 37.089
267.777 5.451 0.082 0.027 0.001 38.646 37.072
268.780 5.436 0.080 0.027 0.001 38.640 37.056
269.782 5.420 0.077 0.026 0.001 38.635 37.038
270.784 5.405 0.075 0.026 0.001 38.629 37.021
271.787 5.389 0.072 0.026 0.001 38.623 37.003
272.789 5.373 0.069 0.026 0.001 38.617 36.985
273.791 5.357 0.067 0.026 0.001 38.611 36.967
274.794 5.341 0.065 0.026 0.001 38.605 36.948
275.796 5.325 0.062 0.026 0.001 38.600 36.929
276.799 5.309 0.060 0.026 0.001 38.594 36.909
277.801 5.292 0.057 0.026 0.001 38.588 36.889
278.803 5.275 0.055 0.026 0.001 38.583 36.868
279.806 5.259 0.053 0.026 0.001 38.577 36.847
280.808 5.241 0.051 0.026 0.001 38.572 36.826
281.810 5.224 0.048 0.026 0.001 38.567 36.804
282.813 5.207 0.046 0.026 0.001 38.561 36.782
283.815 5.189 0.044 0.026 0.001 38.556 36.759
284.817 5.172 0.042 0.026 0.001 38.551 36.735
285.820 5.154 0.040 0.026 0.001 38.546 36.712
286.822 5.136 0.038 0.026 0.001 38.541 36.687
287.824 5.118 0.036 0.026 0.001 38.536 36.663
288.827 5.101 0.034 0.027 0.000 38.531 36.638
289.829 5.083 0.032 0.027 0.000 38.525 36.612
290.832 5.066 0.031 0.027 0.000 38.520 36.587
291.834 5.049 0.029 0.027 0.000 38.515 36.561
292.836 5.033 0.028 0.027 0.000 38.510 36.536
293.839 5.017 0.026 0.027 0.000 38.505 36.511
294.841 5.003 0.025 0.027 0.000 38.500 36.487
295.843 5.018 0.024 0.026 0.000 38.499 36.464
296.846 5.022 0.023 0.026 0.000 38.493 36.440
297.848 5.026 0.022 0.026 0.000 38.487 36.416
298.850 5.031 0.021 0.026 0.000 38.481 36.394
299.853 5.037 0.020 0.026 0.000 38.475 36.372
300.855 5.044 0.020 0.025 0.000 38.469 36.351
301.858 5.051 0.019 0.025 0.000 38.463 36.330
302.860 5.057 0.018 0.025 0.000 38.457 36.310
303.862 5.064 0.017 0.025 0.000 38.450 36.289
304.865 5.071 0.017 0.024 0.000 38.444 36.269
305.867 5.077 0.016 0.024 0.000 38.438 36.248
306.869 5.083 0.016 0.024 0.000 38.431 36.228
307.872 5.089 0.015 0.024 0.000 38.425 36.207
308.874 5.094 0.015 0.023 0.000 38.418 36.186
309.876 5.084 0.014 0.023 0.000 38.405 36.165
310.879 5.075 0.014 0.023 0.000 38.392 36.144
311.881 5.088 0.013 0.023 0.000 38.387 36.124
312.883 5.101 0.013 0.022 0.000 38.382 36.104
313.886 5.114 0.013 0.022 0.000 38.377 36.086
314.888 5.129 0.012 0.022 0.000 38.371 36.068
315.891 5.136 0.012 0.022 0.000 38.365 36.052
316.893 5.086 0.012 0.021 0.000 38.342 36.031
317.895 4.575 0.012 0.021 0.000 38.129 35.945
318.898 4.609 0.012 0.020 0.000 38.128 35.931
319.900 5.286 0.012 0.019 0.000 38.323 35.983
320.902 6.025 0.016 0.016 0.000 38.359 35.932
321.905 6.854 0.020 0.013 0.000 38.410 35.926
322.907 6.747 0.020 0.013 0.000 38.390 35.919
323.909 6.641 0.020 0.013 0.000 38.371 35.914
324.912 6.538 0.019 0.013 0.000 38.353 35.910
325.914 6.437 0.019 0.013 0.000 38.334 35.907
326.916 6.339 0.019 0.013 0.000 38.317 35.904
327.919 6.242 0.019 0.014 0.000 38.299 35.901
328.921 6.148 0.018 0.014 0.000 38.282 35.898
329.924 6.056 0.018 0.014 0.000 38.266 35.895
330.926 5.966 0.018 0.014 0.000 38.250 35.891
331.928 5.877 0.017 0.014 0.000 38.234 35.887
332.931 5.791 0.017 0.014 0.000 38.218 35.883
333.933 5.706 0.017 0.015 0.000 38.202 35.878
334.935 5.630 0.016 0.015 0.000 38.188 35.873
335.938 5.637 0.016 0.015 0.000 38.180 35.863
336.940 5.627 0.016 0.014 0.000 38.169 35.853
337.942 5.800 0.017 0.014 0.000 38.172 35.833
338.945 5.985 0.018 0.013 0.000 38.175 35.814
339.947 6.183 0.019 0.012 0.000 38.179 35.797
340.949 6.396 0.020 0.011 0.000 38.184 35.782
341.952 6.627 0.022 0.011 0.000 38.190 35.771
342.954 6.876 0.023 0.010 0.000 38.198 35.766
343.957 7.148 0.025 0.009 0.000 38.206 35.769
344.959 7.442 0.027 0.009 0.000 38.216 35.783
345.961 7.678 0.029 0.008 0.000 38.221 35.797
346.964 5.968 0.019 0.011 0.000 38.054 35.705
347.966 4.975 0.016 0.014 0.000 37.936 35.763
348.968 5.510 0.016 0.014 0.000 38.127 35.842
349.971 5.117 0.015 0.015 0.000 38.024 35.824
350.973 5.094 0.019 0.013 0.000 37.883 35.811
351.975 5.260 0.025 0.016 0.000 38.160 36.209
352.978 5.367 0.026 0.016 0.000 38.168 36.215
353.980 5.473 0.028 0.015 0.000 38.177 36.223
354.983 5.579 0.029 0.015 0.000 38.188 36.233
355.985 5.684 0.031 0.015 0.000 38.200 36.244
356.987 5.787 0.032 0.014 0.000 38.214 36.257
357.990 5.890 0.034 0.014 0.000 38.229 36.271
358.992 5.992 0.036 0.014 0.000 38.245 36.286
359.994 6.093 0.038 0.014 0.000 38.262 36.302
360.997 6.180 0.040 0.014 0.000 38.281 36.321
361.999 6.105 0.041 0.014 0.000 38.299 36.365
363.001 6.272 0.045 0.013 0.000 38.297 36.362
364.004 6.258 0.046 0.013 0.000 38.255 36.335
365.006 6.338 0.049 0.012 0.000 38.236 36.322
366.008 6.420 0.053 0.012 0.000 38.218 36.308
367.011 6.507 0.056 0.011 0.000 38.199 36.294
368.013 6.597 0.060 0.011 0.000 38.180 36.280
369.016 6.691 0.065 0.010 0.000 38.162 36.265
370.018 6.791 0.069 0.010 0.000 38.143 36.250
371.020 6.894 0.075 0.009 0.000 38.125 36.235
372.023 7.003 0.081 0.009 0.000 38.107 36.219
373.025 7.117 0.087 0.008 0.000 38.089 36.203
374.027 7.237 0.094 0.008 0.000 38.071 36.186
375.030 7.362 0.102 0.007 0.000 38.053 36.170
376.032 7.251 0.104 0.007 0.000 38.026 36.181
